Date,Adj Close,ETS,ARIMA,ARIMAGARCH,LSTM,ESE
2022/1/21,151.158325,155.1323387,155.6970264,152.9263757,154.196321,154.8360896
2022/1/24,151.44162,150.001446,151.6389455,150.78014,146.31314,151.8451772
2022/1/25,150.42569,149.1413919,148.1995598,147.2244669,151.724915,150.5704407
2022/1/26,149.937256,147.3889242,151.8728168,147.9259103,149.40976,149.7095832
2022/1/27,149.839584,146.9557386,149.056373,147.8311135,149.448822,150.0929022
2022/1/28,151.246262,148.0994405,149.3495167,148.8432666,149.741912,149.7584197
2022/1/31,152.584518,149.7781243,150.8693693,150.4085346,152.65294,150.4643606
2022/2/1,153.707916,151.708179,151.1741958,152.9381191,153.922774,150.161892
2022/2/2,153.971664,153.4697365,148.4421109,154.513478,154.831314,150.8831286
2022/2/3,153.112045,154.3663124,153.0330792,155.9022203,154.235412,149.8138819
2022/2/4,149.448837,153.5721429,147.9664557,153.9212944,152.252426,149.8766925
2022/2/7,149.292542,149.7212165,148.6305426,149.4059984,145.785629,148.3620462
2022/2/8,150.679672,149.3153356,148.4891403,148.2036671,149.136247,149.033515
2022/2/9,153.356262,150.3749931,149.980862,147.8727678,152.066802,150.4310303
2022/2/10,150.249863,153.1791268,152.8230887,152.9279425,156.032852,150.9660579
2022/2/11,146.430344,149.5036301,150.094223,151.429978,147.143464,149.7876964
2022/2/14,145.814957,147.9245259,146.4457776,148.2271277,142.610825,147.3482719
2022/2/15,148.130066,146.8850649,145.5048151,144.5812616,145.19957,146.5259613
2022/2/16,148.354767,146.8992804,147.6272912,145.3802734,150.445175,147.0738529
2022/2/17,146.167877,147.8585483,148.0894525,147.5721446,148.579468,147.3489808
2022/2/18,146.74646,145.7642251,146.3301987,146.7606968,143.980987,147.086741
2022/2/22,143.833893,144.7949981,146.8405719,146.73688,147.325043,145.5421991
2022/2/23,137.891098,143.2552232,143.4558266,143.677426,140.921326,142.7298375
2022/2/24,135.047165,141.6224051,137.8931142,136.8820611,131.948303,139.1203802
2022/2/25,138.361786,133.7220826,136.0121998,132.2369755,132.203232,135.7322901
2022/2/28,130.869522,136.3601981,133.2915562,132.4313757,141.676407,134.9493295
2022/3/1,124.053925,130.5673692,135.5442324,129.8531682,123.377258,130.5417121
2022/3/2,126.289825,124.5790306,122.7893476,124.1336942,117.238328,129.0633848
2022/3/3,125.573944,119.2295144,128.8565744,120.9867618,128.525725,125.2375332
2022/3/4,121.55323,120.6363656,124.0666777,119.5330287,124.858063,124.0382121
2022/3/7,112.285957,118.8592355,119.1913843,119.2825953,117.532516,117.1553633
2022/3/8,115.463303,112.9607219,108.208028,113.6573882,103.018684,112.8076325
2022/3/9,119.670357,110.4651107,111.0234851,111.009703,118.640649,112.0398099
2022/3/10,118.846603,113.2689192,116.8879166,114.4051609,123.877411,114.0971196
2022/3/11,117.905167,114.1853399,114.3799571,118.2212863,118.022849,115.6474654
2022/3/14,119.591904,114.3582232,115.6745224,119.3578342,116.963731,113.1188492
2022/3/15,120.984451,118.5464063,109.3020682,120.5714415,121.278641,114.6913808
2022/3/16,125.397438,120.646714,119.0975517,121.1039198,122.376998,113.6381514
2022/3/17,126.191765,125.2426366,112.5148342,126.3310461,129.810425,118.8341155
2022/3/18,128.398239,127.7136765,124.8899606,128.2352708,126.986092,121.6270127
2022/3/21,126.41732,128.5912725,127.4762433,131.0546384,130.604713,126.745842
2022/3/22,127.937355,128.0331866,127.8713221,129.6912999,124.436401,127.7941263
2022/3/23,126.25061,130.8287314,128.0348134,128.8762631,129.45739,127.3550495
2022/3/24,127.005714,127.7435015,126.1590131,127.6755813,124.563865,127.1269597
2022/3/25,126.956688,127.8865862,127.1870526,125.2429318,127.760818,126.9168782
2022/3/28,127.044945,127.4837618,127.404569,127.834151,126.907662,127.3880475
2022/3/29,133.26236,126.3161069,127.5725208,126.2115745,127.133202,129.4648449
2022/3/30,130.3694,129.8408932,133.417445,133.0771295,139.479775,130.8415569
2022/3/31,128.535553,131.154964,131.5347048,133.3678895,127.47644,131.4583839
2022/4/1,131.418716,130.8791281,129.423002,131.056596,126.701706,130.9977555
2022/4/4,130.791061,131.9689767,132.0355599,131.033239,134.301879,131.0257424
2022/4/5,129.84964,131.9514421,131.6186655,130.7490085,130.163406,131.4468044
2022/4/6,131.546188,134.0112857,130.6861879,129.9322931,128.908219,131.4579263
2022/4/7,131.556,130.4368746,132.0689254,131.1771808,133.242736,131.8035538
2022/4/8,129.967316,128.7177923,132.6555482,131.797263,131.565812,132.26725
2022/4/11,129.202408,133.2293918,132.0772764,130.863642,128.378632,132.1160134
2022/4/12,126.221191,130.4647413,131.6152156,129.3493364,128.4375,131.4062802
2022/4/13,128.064835,126.2354442,130.5263484,125.468226,123.239974,130.943676
2022/4/14,125.789696,126.9456029,130.689464,124.944831,129.908479,128.629739
2022/4/18,124.044113,125.8491197,124.6734046,125.8145404,123.514557,127.7546192
2022/4/19,127.133194,123.7871592,127.900989,123.4737641,122.29853,125.4146738
2022/4/20,129.153381,124.0899848,123.6696277,125.4544503,130.222275,126.8656185
2022/4/21,130.575333,128.3890712,129.0262387,128.0825478,131.173568,127.5275594
2022/4/22,130.281143,130.5768042,129.8868118,131.5145831,131.997285,129.4500888
2022/4/25,126.838997,130.6790596,129.4372158,134.2015975,129.986953,128.9219278
2022/4/26,123.465523,129.7763218,127.4417559,127.7142801,123.396851,127.5832178
2022/4/27,127.103783,123.4766372,125.8706818,122.4416854,120.092049,126.4657072
2022/4/28,128.319809,126.8525692,126.084684,123.7632718,130.742043,126.6785048
2022/4/29,125.515106,128.2053212,128.0801487,126.3401436,129.535835,126.650193
2022/5/2,128.457092,125.566158,125.7857465,126.0518099,122.710403,126.7229942
2022/5/3,130.634186,125.911706,126.3030873,128.8688064,131.399078,126.5854293
2022/5/4,134.684311,130.3335787,127.667454,130.3796771,132.81128,129.1794355
2022/5/5,129.025894,134.9457741,133.5677652,135.5171042,138.734436,130.4214223
2022/5/6,126.04467,132.5456316,130.0290478,135.6597649,123.367477,130.9152639
2022/5/9,125.256523,130.4661328,129.1489788,126.3132597,123.063446,129.1484954
2022/5/10,123.187622,125.3506631,128.2674597,123.8819425,124.468376,126.8690869
2022/5/11,122.458595,122.8908505,123.1908224,120.6721308,121.118721,125.0122473
2022/5/12,121.493111,121.6790136,123.5784598,120.2948388,121.729568,123.5597967
2022/5/13,120.54734,120.1377683,123.9101078,120.0137998,120.527627,123.5112886
2022/5/16,118.685326,117.9341137,123.0452981,119.30731,119.601569,121.7255128
2022/5/17,122.488152,117.0024908,118.2211326,118.3767994,116.823312,121.2552911
2022/5/18,117.788811,119.3226774,122.4994425,120.4992462,126.290978,119.122221
2022/5/19,120.852737,118.1727105,116.6460877,119.8314443,113.08947,119.7222066
2022/5/20,117.907043,118.6108633,120.0210896,118.707881,123.916663,118.0642459
2022/5/23,120.990669,119.5225487,117.5255605,120.6750345,114.961349,119.1756997
2022/5/24,119.660667,117.7410507,119.9804489,116.9963661,124.074295,118.8382886
2022/5/25,121.581787,121.1463318,119.0088565,122.8314182,118.330665,119.0272946
2022/5/26,124.428963,118.6578007,118.0925783,119.7716064,123.502907,120.5327818
2022/5/27,128.103714,123.4062881,124.4969107,124.5366454,127.276139,123.2289196
2022/5/31,124.61615,128.8636211,127.0972697,128.9319339,131.778465,125.3064261
2022/6/1,123.512741,128.7168622,124.325098,129.9124136,121.128586,126.4098147
2022/6/2,126.882072,126.5641579,127.8070765,124.4692737,122.409332,126.3710196
2022/6/3,123.601402,127.7187312,126.9808845,125.8902945,130.251403,126.1898436
2022/6/6,125.246666,126.4334539,123.78157,123.5502756,120.320732,125.429027
2022/6/7,126.872215,125.8782156,125.5246266,124.5820694,126.89193,125.397008
2022/6/8,125.128448,123.0961848,126.8848276,127.1429731,128.497764,126.3487004
2022/6/9,122.153183,124.1869032,126.6366469,125.6354313,123.384681,126.669403
2022/6/10,114.183029,127.1301693,126.4867345,123.899734,119.177918,125.6842731
2022/6/13,111.621544,114.1550704,123.9294378,112.7622639,106.212875,124.1073226
2022/6/14,109.85807,110.3187143,121.9057956,108.0924908,109.060059,118.4941981
2022/6/15,111.936813,107.6450164,109.6473609,104.0740657,108.094596,111.778477
2022/6/16,106.892662,109.2700988,103.7822747,107.8396979,114.015556,108.1458132
2022/6/17,108.390137,104.4324225,111.007804,105.3061194,101.848511,107.4349564
2022/6/21,108.961555,104.9020069,107.5147906,107.0690703,109.887612,108.8198348
2022/6/22,111.069847,106.6671222,107.9369099,107.9550556,109.532973,108.3485114
2022/6/23,112.665848,109.5636016,109.5938336,109.7692763,113.178139,108.8400392
2022/6/24,119.217339,111.8328782,108.9893742,113.3864839,114.261849,108.7891504
2022/6/27,119.503036,119.8696969,107.7842435,119.7417171,125.76883,111.8057249
2022/6/28,117.503113,120.789192,118.6435569,123.3326018,119.788733,112.0079925
2022/6/29,115.473625,119.2696893,109.5961771,121.4216691,115.50319,114.3551337
2022/6/30,112.646141,120.5483196,114.8256671,116.6029301,113.444137,112.1782988
2022/7/1,116.113998,113.5838734,112.1130522,112.003379,109.818657,114.218891
2022/7/5,117.000671,116.4894632,115.7179537,111.8104904,119.581855,114.8762257
2022/7/6,117.63118,117.19753,116.7976713,116.4666195,117.887344,116.7031199
2022/7/7,117.335625,117.5909383,117.5937348,118.0746786,118.261689,117.3602668
2022/7/8,116.123856,117.107441,117.6893943,120.7635641,117.04007,117.2820627
2022/7/11,112.478661,116.1451743,116.5630589,116.7059817,114.912087,115.717597
2022/7/12,114.311111,112.7171059,112.9003378,112.0070563,108.833466,114.6934514
2022/7/13,113.99585,114.7730489,114.6169576,111.7435177,116.143561,113.960395
2022/7/14,113.138733,113.8205912,114.3638896,112.4021478,113.680589,114.128014
2022/7/15,115.069702,112.6058084,113.4031948,112.5504362,112.281616,114.2740848
2022/7/18,113.207703,112.5595838,115.0551701,114.5002208,117.000671,113.8939436
2022/7/19,117.995697,112.587913,113.2234659,113.7273599,111.345704,115.2586512
2022/7/20,118.320816,115.8154778,117.4973175,116.3125816,122.783691,115.901871
2022/7/21,121.128593,117.9002413,116.9848296,120.578633,118.645935,118.5236393
2022/7/22,125.837784,120.645272,121.0887707,120.7543131,123.93637,121.3586598
2022/7/25,124.990524,127.1843687,126.0023792,127.3033392,130.546975,123.0757185
2022/7/26,124.350151,127.0287971,122.1360057,128.2386242,124.143264,124.3223936
2022/7/27,125.049637,130.4274016,124.8287958,127.6356954,123.709778,123.4836181
2022/7/28,128.428818,129.2525036,123.4860529,126.1073725,125.749123,125.3140998
2022/7/29,127.374657,129.7282186,127.6274508,127.5757892,131.807999,126.5763172
2022/8/1,127.394371,129.6087187,128.6154478,128.3284867,126.320496,128.093084
2022/8/2,124.773781,128.5172211,128.0363534,129.1920081,127.414085,128.1231589
2022/8/3,126.34024,126.9202468,127.7176756,125.5551008,122.153191,127.920336
2022/8/4,126.231857,127.2771866,128.0069789,123.9481129,127.906699,127.634909
2022/8/5,125.473267,126.4235031,127.1800724,125.5224844,126.123474,127.1757261
2022/8/8,126.389481,125.6857382,126.3401269,125.5926909,124.714677,127.8987003
2022/8/9,125.914299,125.8922893,130.1759017,126.1696017,127.305695,127.7159623
2022/8/10,132.200607,125.5049747,126.6318583,126.114408,125.439117,129.8991583
2022/8/11,132.002609,128.7404316,132.8897149,130.836571,138.486915,130.7403462
2022/8/12,134.190445,132.5510611,132.6994656,133.6303497,131.804611,133.4094586
2022/8/15,135.022018,134.5947432,134.6391954,136.8256589,136.378281,134.2683291
2022/8/16,135.833801,136.3750506,135.4663262,139.3764557,135.853591,134.6280789
2022/8/17,132.844101,137.7115194,133.7787151,137.5092923,136.645584,134.5100057
2022/8/18,132.14122,137.2029492,134.2849759,134.6410344,129.854401,134.2205546
2022/8/19,130.616669,133.2406947,134.5979727,131.9417238,131.438339,133.5550002
2022/8/22,125.953903,131.1883042,131.782052,129.6826333,129.092118,132.0131302
2022/8/23,126.369682,125.363553,129.6593658,125.1464646,121.291137,130.6645908
2022/8/24,126.726067,125.2726112,130.5523545,124.0626835,126.785461,130.5962036
2022/8/25,130.834457,124.9659118,131.5768906,123.8208311,127.082452,131.2286589
2022/8/26,124.775841,125.5338827,131.5567315,130.1040929,134.942847,129.3409263
2022/8/29,124.676834,124.4443134,124.8891568,129.0834019,118.717225,127.0290858
2022/8/30,126.498383,124.2145698,124.641369,124.8396739,124.577827,125.2743701
2022/8/31,125.706413,124.6752141,126.2925845,124.4932493,128.319932,125.4821523
2022/9/1,123.290878,125.1418089,125.5125034,124.8948431,124.914443,124.9709458
2022/9/2,122.518707,124.0724276,123.1077495,123.3186152,120.875343,123.5228929
2022/9/6,122.449402,122.641274,121.9484256,121.9916079,121.746536,122.2276758
2022/9/7,126.557777,121.4933834,121.6268522,121.2628662,122.380097,122.3454869
2022/9/8,126.478584,125.5621488,123.4611827,125.3457274,130.666152,122.3900801
2022/9/9,126.825073,124.9458689,122.0822054,127.1334382,126.399391,123.9412332
2022/9/12,130.260269,126.067017,126.2803114,128.587784,127.171562,126.0824074
2022/9/13,123.241379,130.445867,129.8847053,131.6126088,133.695465,126.9605956
2022/9/14,118.954819,127.2729057,124.7167701,126.0950376,116.222489,125.8359462
2022/9/15,119.232002,119.4591359,122.9063631,118.4416055,114.668259,123.2868361
2022/9/16,116.301697,118.7636729,122.237375,116.5484555,119.509185,121.6654546
2022/9/19,118.034142,115.3929999,119.8526255,112.3964707,113.371392,120.2707717
2022/9/20,115.489922,115.0487007,118.7223146,115.7013168,119.766587,118.8079351
2022/9/21,112.163612,113.0627964,117.8488651,117.0855175,112.945702,117.5618508
2022/9/22,110.797447,109.4811835,116.1143726,111.8508525,108.837302,114.6802096
2022/9/23,111.193443,108.7576324,110.0773913,109.3263495,109.431282,112.124506
2022/9/26,110.054977,108.9582461,110.1817541,108.2641474,111.589439,109.720653
2022/9/27,109.946083,108.0756318,108.9028135,108.5903972,108.916511,109.313964
2022/9/28,112.163612,107.7244512,108.8573244,109.0739264,109.837189,109.3537555
2022/9/29,110.49057,108.410024,110.3011288,111.2087015,114.381141,109.5426704
2022/9/30,109.579796,109.7947509,109.4695581,111.083205,108.817528,109.2698645
2022/10/3,113.044685,109.179513,108.0389067,110.5939221,108.669022,107.7783889
2022/10/4,117.954941,111.5752034,105.8267018,112.1694023,116.509574,110.3048394
2022/10/5,119.024109,118.0580214,117.0489098,117.550182,122.865197,113.7369583
2022/10/6,116.549187,119.9504594,118.3352633,121.0982869,120.093277,117.1472597
2022/10/7,113.222885,119.204041,116.057606,121.7374156,114.074265,115.7824039
2022/10/10,109.639191,117.7120548,112.9543425,114.1474719,109.896583,112.8186008
2022/10/11,109.649094,109.9394821,109.4438541,108.3488148,106.055497,110.6246588
2022/10/12,108.589828,109.5784761,109.4757798,106.640584,109.658997,109.1500338
2022/10/13,111.094444,107.9801719,108.5304675,106.3655547,107.530562,109.3990659
2022/10/14,109.223404,109.7218795,110.1909504,109.8026457,113.59906,110.0005494
2022/10/17,112.173515,106.2254385,111.2802304,110.6922043,107.352364,111.2117088
2022/10/18,115.569107,110.8818115,112.1639456,111.0555278,115.123626,113.0218245
2022/10/19,113.490173,115.0811311,115.6212977,115.6859477,118.964699,113.8351649
2022/10/20,107.32267,114.2977686,113.7202514,115.4882096,111.411239,112.4157189
2022/10/21,111.460732,112.2309717,107.9056076,110.2914055,101.155167,110.8800969
2022/10/24,110.827156,111.8572131,111.0144317,110.025243,115.598794,109.8666037
2022/10/25,111.827026,111.3945228,110.679772,109.5548448,110.19358,111.0863956
2022/10/26,111.688423,110.8346173,111.5649832,110.6041923,112.826896,111.244721
2022/10/27,111.23304,111.1358667,111.489408,114.024236,111.54982,111.312807
2022/10/28,113.014992,109.9251115,110.8840299,111.8816884,110.777657,111.6541876
2022/10/31,113.034782,112.4168639,112.5891249,112.800704,114.796944,111.9465357
2022/11/1,112.85659,112.8898908,112.3664522,113.1920062,113.054572,112.6155001
2022/11/2,108.975906,113.5577069,112.8909231,113.5490022,112.678398,112.3090053
2022/11/3,108.609627,108.9740907,111.6696406,110.261637,105.095222,112.0001802
2022/11/4,114.301949,108.4387862,111.4399769,107.6583302,108.243348,111.7025224
2022/11/7,115.173119,111.2359954,111.9979497,111.448541,119.994271,113.1938935
2022/11/8,115.291916,113.2125948,116.143754,115.7228246,116.044289,114.0521138
2022/11/9,113.639771,114.3740795,114.0146378,116.9237027,115.410713,113.5894574
2022/11/10,124.219475,114.1565551,110.6099804,116.2400337,111.987626,116.3711975
2022/11/11,129.474487,121.3245527,124.4889742,119.7625098,134.799179,118.8271094
2022/11/14,127.354576,131.126532,121.3823737,132.4007546,134.729499,123.4053746
2022/11/15,128.887283,130.8541716,124.3447761,133.5719024,125.234665,125.1971339
2022/11/16,128.379715,132.3123743,129.8642519,135.0906073,130.41999,127.7038886
2022/11/17,126.06073,133.8807739,128.9026379,130.4774254,127.872147,128.6473506
2022/11/18,127.862167,132.6543733,127.175162,126.5632873,123.741745,128.7710053
2022/11/21,128.439423,129.4698682,130.235216,127.2843494,129.663604,129.045969
2022/11/22,131.365509,129.5649317,129.7275291,127.3535782,129.016679,130.9050371
2022/11/23,132.43045,129.3451776,132.7523664,131.6892662,134.291595,132.2032733
2022/11/25,132.729034,132.7093072,134.1299244,133.6363118,133.495391,134.2731729
2022/11/28,129.683502,133.4351583,135.9372278,134.5162443,133.027618,133.7017988
2022/11/29,131.206268,130.5816018,131.0382442,132.14325,126.63797,133.1706157
2022/11/30,134.580231,133.0345359,132.5363753,131.0848157,132.729034,133.0533683
2022/12/1,134.321457,134.3250927,135.5854853,132.9901451,137.954194,134.5402529
2022/12/2,136.650391,134.5460289,135.4988981,134.801933,134.062683,136.154677
2022/12/5,133.953201,135.8345543,137.3796475,137.738637,138.979325,136.0222425
2022/12/6,131.415268,136.0014847,135.1881819,136.5076979,131.256011,135.5426113
2022/12/7,128.827576,134.8958657,134.0600046,131.4605259,128.877335,134.5665535
2022/12/8,129.743225,129.0578137,134.4514739,127.6518073,126.239884,133.1273079
2022/12/9,129.792984,129.4306526,130.8704452,125.29973,130.658874,132.7122441
2022/12/12,131.693954,129.1118951,132.8148132,128.3738808,129.842743,132.1457421
2022/12/13,133.435669,128.012305,132.751968,131.2500928,133.594924,132.6754373
2022/12/14,132.141815,132.719342,132.4595306,134.0658266,135.177384,132.5074681
2022/12/15,128.160751,131.8419361,132.3109057,133.8926403,130.847961,130.9853098
2022/12/16,125.573044,128.3833632,128.185493,130.2617676,124.179687,128.9339937
2022/12/19,125.035599,124.9171801,126.3055825,124.3798488,122.985337,126.4310766
2022/12/20,124.169716,124.5273481,124.8021542,122.799318,124.498154,125.9207826
2022/12/21,126.548409,123.2683339,126.654611,121.5958376,123.303833,126.6353341
2022/12/22,125.264511,125.8898676,128.4492373,125.3082629,128.927102,125.6330462
2022/12/23,126.120445,121.9181109,121.7952905,125.1903371,123.980613,124.2883495
2022/12/27,125.821861,125.0353184,122.6205207,126.3263099,126.976379,123.2028613
2022/12/28,123.68203,125.2764725,125.1927726,127.3527502,125.523277,123.6127412
2022/12/29,125.801956,124.284886,123.0249303,123.8892275,121.542199,123.9000568
2022/12/30,125.145081,125.5191224,123.4824676,125.0507451,127.921882,123.3242067
2023/1/3,126.239868,125.0745321,123.4652222,124.447412,124.488206,124.2647564
2023/1/4,129.355072,125.163287,125.8465795,125.9448583,127.334655,126.1226188
2023/1/5,122.527527,128.7823325,129.0560547,129.6741056,132.470276,125.6919426
2023/1/6,127.892021,125.4362091,122.1731938,125.2422796,115.699982,126.2744798
2023/1/9,128.260269,126.9123006,127.5941911,126.8113272,133.256515,125.5538791
2023/1/10,129.16597,128.1443724,126.8942523,127.2254667,128.628517,127.8466001
2023/1/11,131.465027,128.3891232,129.051357,126.3223806,130.071671,129.1613647
2023/1/12,130.997253,130.7890143,131.5384847,132.3650929,133.764084,130.6073318
2023/1/13,131.77356,131.7975141,131.2321536,132.723775,130.529479,131.9683588
2023/1/17,130.001984,133.1284722,133.1344379,133.0830976,132.549867,131.7761625
2023/1/18,127.175423,132.8543424,130.9618959,130.8827886,128.230408,131.5254093
2023/1/19,123.015205,127.738412,130.479894,126.8199884,124.348862,130.2472529
2023/1/20,130.380188,122.668851,129.2999687,121.5138382,118.854987,129.9256094
2023/1/23,129.683502,127.2719661,129.9969655,125.3633745,137.745171,129.7974394
2023/1/24,130.350342,127.0639386,130.095384,128.5945628,128.986816,130.3037596
2023/1/25,127.543671,128.6874109,130.8189293,131.1218609,131.017182,130.2795602
2023/1/26,127.095802,128.6092901,129.9243673,132.9508135,124.737,130.0199399
2023/1/27,126.747459,127.6633111,129.3165232,127.0844139,126.647933,128.7499727
2023/1/30,127.046043,128.1037185,127.0090275,125.4491459,126.399116,128.027222
2023/1/31,129.723312,127.4938711,127.7561152,124.994739,127.344627,127.9559079
2023/2/1,131.385406,129.602042,129.1025809,129.5207124,132.400581,129.2500645
2023/2/2,133.793961,131.3309975,130.8914975,132.2085419,133.0475,129.8426423
2023/2/3,130.111465,134.1915702,129.5338484,135.2856394,136.202516,129.807965
2023/2/6,128.827576,130.9930334,128.9985493,133.2127025,126.428969,129.2791736
2023/2/7,130.648926,132.4002642,129.3051233,129.125142,127.543687,129.3943249
2023/2/8,129.763138,131.7157267,129.8793022,129.2567533,132.470276,129.7815275
2023/2/9,128.25032,130.2025923,130.1601571,128.9764819,128.87735,129.5120812
2023/2/10,125.632767,128.3830438,128.4967843,128.0175864,126.737502,129.1666755
2023/2/13,128.13089,126.2899781,128.8430852,125.8680703,123.015214,128.773792
2023/2/14,129.16597,126.009104,128.9815065,124.9652364,130.629013,128.9816382
2023/2/15,130.419998,127.3550172,129.1203229,128.6832069,130.20105,129.4578817
2023/2/16,129.149994,128.6689094,130.2718157,130.766399,131.674026,129.5176969
2023/2/17,129.910004,128.7274609,129.160952,132.6601513,127.87999,129.7711226
2023/2/21,126.199997,129.9007877,129.8806,130.5119233,130.670014,128.5378859
2023/2/22,128.669998,128.8491283,126.5721057,126.5767258,122.48999,128.318761
2023/2/23,128.169998,129.2690398,128.5035773,125.6150435,131.139999,127.7346738
2023/2/24,129.710007,128.318108,128.1283385,128.2003263,127.669998,128.6963608
2023/2/27,131.610001,128.3295171,129.4571666,127.5681568,131.250016,128.5379256
2023/2/28,132.059998,129.8178308,128.0282717,132.054112,133.509995,129.5203394
2023/3/1,133.229996,132.1483391,131.0755801,133.4579657,132.509995,130.7513205
2023/3/2,134.839996,133.3484818,133.1501096,134.4028807,134.399994,132.2854175
